freq,psd_x,psd_y,psd_z,psd_xyz
0.0,2.559e+02,3.611e+02,7.401e+02,1.357e+03
1.5,1.613e+02,2.284e+02,4.509e+02,8.406e+02
3.1,2.600e+01,3.500e+01,4.292e+01,1.039e+02
4.6,3.975e+01,3.840e+02,4.860e+01,4.723e+02
6.1,5.504e+01,1.244e+03,4.668e+01,1.346e+03
7.6,3.492e+01,1.750e+03,4.083e+01,1.826e+03
9.2,2.761e+01,2.661e+03,4.022e+01,2.729e+03
10.7,3.437e+01,3.563e+03,4.023e+01,3.637e+03
12.2,3.924e+01,4.720e+03,3.981e+01,4.799e+03
13.7,4.017e+01,6.309e+03,3.835e+01,6.387e+03
15.3,3.992e+01,8.389e+03,3.938e+01,8.469e+03
16.8,3.278e+01,1.100e+04,4.408e+01,1.107e+04
18.3,2.969e+01,1.439e+04,5.042e+01,1.447e+04
19.8,2.677e+01,1.912e+04,6.766e+01,1.921e+04
21.4,2.587e+01,2.596e+04,1.276e+02,2.612e+04
22.9,6.433e+01,3.520e+04,2.996e+02,3.556e+04
24.4,4.238e+02,4.220e+04,5.088e+02,4.313e+04
25.9,9.062e+02,3.986e+04,5.257e+02,4.129e+04
27.5,6.152e+02,2.965e+04,4.735e+02,3.074e+04
29.0,3.921e+02,2.349e+04,4.964e+02,2.438e+04
30.5,4.154e+02,2.437e+04,6.033e+02,2.539e+04
32.0,5.557e+02,3.020e+04,9.187e+02,3.167e+04
33.6,9.228e+02,3.700e+04,1.442e+03,3.936e+04
35.1,1.384e+03,4.255e+04,2.111e+03,4.605e+04
36.6,2.062e+03,4.984e+04,3.508e+03,5.541e+04
38.1,3.284e+03,6.295e+04,7.059e+03,7.329e+04
39.7,5.455e+03,7.950e+04,1.434e+04,9.930e+04
41.2,1.061e+04,1.075e+05,3.574e+04,1.539e+05
42.7,2.520e+04,1.427e+05,1.025e+05,2.704e+05
44.2,4.566e+04,1.370e+05,1.915e+05,3.741e+05
45.8,5.769e+04,1.088e+05,2.336e+05,4.001e+05
47.3,6.104e+04,9.447e+04,2.375e+05,3.930e+05
48.8,6.017e+04,9.174e+04,2.229e+05,3.748e+05
50.3,5.709e+04,1.016e+05,2.029e+05,3.616e+05
51.9,5.376e+04,1.332e+05,1.864e+05,3.733e+05
53.4,5.224e+04,1.898e+05,1.704e+05,4.124e+05
54.9,5.411e+04,2.836e+05,1.555e+05,4.932e+05
56.4,5.673e+04,4.295e+05,1.498e+05,6.361e+05
58.0,5.714e+04,6.818e+05,2.120e+05,9.510e+05
59.5,6.261e+04,1.042e+06,4.777e+05,1.582e+06
61.0,6.029e+04,1.208e+06,9.091e+05,2.177e+06
62.5,5.571e+04,1.118e+06,1.332e+06,2.506e+06
64.1,5.217e+04,8.776e+05,1.630e+06,2.560e+06
65.6,6.398e+04,6.453e+05,1.897e+06,2.606e+06
67.1,1.154e+05,4.686e+05,2.052e+06,2.636e+06
68.6,2.028e+05,3.800e+05,2.215e+06,2.797e+06
70.2,3.689e+05,3.830e+05,2.441e+06,3.193e+06
71.7,5.952e+05,4.405e+05,2.291e+06,3.326e+06
73.2,6.886e+05,4.802e+05,2.038e+06,3.207e+06
74.7,7.110e+05,4.673e+05,1.759e+06,2.938e+06
76.3,7.558e+05,4.518e+05,1.552e+06,2.760e+06
77.8,8.357e+05,4.247e+05,1.426e+06,2.686e+06
79.3,8.519e+05,3.889e+05,1.332e+06,2.573e+06
80.8,8.154e+05,3.794e+05,1.307e+06,2.502e+06
82.4,7.287e+05,3.524e+05,1.195e+06,2.276e+06
83.9,6.752e+05,3.274e+05,1.109e+06,2.111e+06
85.4,6.305e+05,3.209e+05,1.064e+06,2.016e+06
86.9,5.832e+05,3.152e+05,1.013e+06,1.911e+06
88.5,5.534e+05,3.097e+05,9.783e+05,1.841e+06
90.0,5.223e+05,3.002e+05,9.417e+05,1.764e+06
91.5,4.895e+05,2.906e+05,9.153e+05,1.695e+06
93.0,4.641e+05,2.787e+05,8.977e+05,1.641e+06
94.6,4.621e+05,2.686e+05,9.145e+05,1.645e+06
96.1,4.734e+05,2.624e+05,9.685e+05,1.704e+06
97.6,4.730e+05,2.550e+05,1.023e+06,1.751e+06
99.1,4.536e+05,2.437e+05,1.034e+06,1.731e+06
100.7,4.227e+05,2.291e+05,9.927e+05,1.644e+06
102.2,3.902e+05,2.131e+05,9.348e+05,1.538e+06
103.7,3.482e+05,1.945e+05,8.555e+05,1.398e+06
105.2,2.852e+05,1.693e+05,7.437e+05,1.198e+06
106.8,2.671e+05,1.615e+05,7.063e+05,1.135e+06
108.3,2.876e+05,1.644e+05,7.308e+05,1.183e+06
109.8,3.206e+05,1.682e+05,7.662e+05,1.255e+06
111.3,3.713e+05,1.713e+05,8.311e+05,1.374e+06
112.9,4.499e+05,1.727e+05,9.874e+05,1.610e+06
114.4,5.261e+05,1.667e+05,1.188e+06,1.881e+06
115.9,5.611e+05,1.517e+05,1.355e+06,2.067e+06
117.4,5.327e+05,1.290e+05,1.418e+06,2.080e+06
119.0,4.452e+05,1.042e+05,1.321e+06,1.871e+06
120.5,3.288e+05,8.383e+04,1.086e+06,1.498e+06
122.0,2.317e+05,7.251e+04,8.308e+05,1.135e+06
123.5,1.644e+05,6.575e+04,6.437e+05,8.738e+05
125.1,1.150e+05,6.203e+04,5.029e+05,6.799e+05
126.6,7.938e+04,6.337e+04,3.897e+05,5.325e+05
128.1,6.107e+04,7.180e+04,3.140e+05,4.469e+05
129.6,6.112e+04,8.299e+04,2.864e+05,4.305e+05
131.2,7.116e+04,9.198e+04,2.586e+05,4.217e+05
132.7,8.199e+04,6.876e+04,2.030e+05,3.538e+05
134.2,8.054e+04,2.019e+04,1.401e+05,2.409e+05
135.7,9.157e+04,1.322e+04,1.305e+05,2.353e+05
137.3,1.086e+05,1.377e+04,1.172e+05,2.396e+05
138.8,1.306e+05,1.296e+04,1.078e+05,2.514e+05
140.3,1.377e+05,1.449e+04,1.144e+05,2.666e+05
141.8,1.351e+05,1.602e+04,1.075e+05,2.586e+05
143.4,1.404e+05,1.578e+04,8.349e+04,2.396e+05
144.9,1.358e+05,1.525e+04,5.295e+04,2.040e+05
146.4,1.273e+05,1.327e+04,3.640e+04,1.770e+05
147.9,1.212e+05,1.114e+04,2.523e+04,1.575e+05
149.5,1.166e+05,9.684e+03,2.027e+04,1.465e+05
151.0,1.128e+05,9.452e+03,1.872e+04,1.409e+05
152.5,9.810e+04,1.035e+04,1.639e+04,1.248e+05
154.0,7.013e+04,9.800e+03,1.609e+04,9.602e+04
155.6,5.965e+04,9.011e+03,2.213e+04,9.079e+04
157.1,5.389e+04,8.478e+03,2.702e+04,8.939e+04
158.6,4.579e+04,8.417e+03,2.893e+04,8.314e+04
160.1,4.798e+04,9.223e+03,2.522e+04,8.242e+04
161.7,8.881e+04,9.479e+03,2.630e+04,1.246e+05
163.2,1.228e+05,9.581e+03,3.065e+04,1.631e+05
164.7,1.078e+05,7.953e+03,2.857e+04,1.443e+05
166.2,1.303e+05,8.110e+03,2.655e+04,1.650e+05
167.8,1.734e+05,9.399e+03,2.871e+04,2.115e+05
169.3,1.271e+05,6.927e+03,3.028e+04,1.643e+05
170.8,8.910e+04,4.611e+03,2.934e+04,1.230e+05
172.3,1.004e+05,5.505e+03,3.144e+04,1.374e+05
173.9,1.051e+05,5.569e+03,3.426e+04,1.449e+05
175.4,9.940e+04,5.100e+03,3.624e+04,1.407e+05
176.9,7.927e+04,4.952e+03,3.397e+04,1.182e+05
178.4,5.819e+04,5.683e+03,2.914e+04,9.300e+04
180.0,7.087e+04,8.511e+03,2.609e+04,1.055e+05
181.5,9.794e+04,1.139e+04,2.556e+04,1.349e+05
183.0,1.191e+05,1.244e+04,2.926e+04,1.608e+05
184.5,1.387e+05,1.224e+04,3.359e+04,1.845e+05
186.1,1.513e+05,1.125e+04,3.396e+04,1.965e+05
187.6,1.594e+05,9.786e+03,3.177e+04,2.010e+05
189.1,1.577e+05,8.365e+03,2.574e+04,1.918e+05
190.6,1.499e+05,6.997e+03,1.704e+04,1.740e+05
192.2,1.444e+05,5.730e+03,9.236e+03,1.594e+05
193.7,1.482e+05,4.568e+03,4.922e+03,1.577e+05
195.2,1.718e+05,3.644e+03,6.972e+03,1.824e+05
196.7,1.999e+05,3.309e+03,1.920e+04,2.224e+05
198.3,2.122e+05,3.938e+03,3.972e+04,2.558e+05
199.8,2.062e+05,5.393e+03,6.101e+04,2.726e+05
